VAMAS Surface Chemical Analysis Standard Data Transfer Format 1988 May 4
Not Specified
Not Specified
Not Specified
Not Specified
5
Casa Info Follows CasaXPS Version 2.3.26PR1.0
0
Created by SpecsLab Prodigy, Version 4.100.1-r111001 
SourceAnalyserAngle: Not Specified
CasaRowLabel:1 as-loaded
NORM
IRREGULAR
1
1
Value
d
0
0
0
0
1
Counts per Second
1 as-loaded
0
0
0
0
0
0
0
6
Casa Info Follows
0
0
0
0

XPS
0
Al
1486.61
1e+037
1e+037
1e+037
1e+037
1e+037
FAT
1e+037
1e+037
1e+037
1e+037
1e+037
1e+037
1e+037
1e+037
Survey

-1
3
Kinetic Energy
eV
Intensity
d
transmission
d
pulse counting
1
1
1e+037
1e+037
1e+037
1e+037
2
MFP Exponent
d
0
ESCAPE DEPTH TYPE
d
1
4053
0
1
0
1
0
1
136.61
15598.7
78.8103
137.61
15867.9
78.5146
138.61
15651.5
78.2222
139.61
15321.3
77.933
140.61
15793.4
77.647
141.61
15662
77.3642
142.61
15599
77.0844
143.61
15758.9
76.8076
144.61
15681.7
76.5338
145.61
15968.1
76.2628
146.61
15844.6
75.9948
147.61
15328.3
75.7295
148.61
15541
75.467
149.61
15355.9
75.2073
150.61
15531.3
74.9501
151.61
15831.1
74.6956
152.61
15628.4
74.4437
153.61
15643.4
74.1943
154.61
15649.2
73.9474
155.61
15508.5
73.703
156.61
16168.7
73.4609
157.61
16783.7
73.2213
158.61
16696.5
72.9839
159.61
17242
72.7489
160.61
16225.4
72.5161
161.61
16518.6
72.2855
162.61
16381.9
72.0571
163.61
16956.2
71.8309
164.61
16503.2
71.6068
165.61
17074.8
71.3847
166.61
16608.9
71.1647
167.61
16689.8
70.9468
168.61
16261.6
70.7308
169.61
16260.5
70.5168
170.61
15986.7
70.3047
171.61
15943.1
70.0945
172.61
15576.2
69.8862
173.61
15749.3
69.6798
174.61
15307.1
69.4751
175.61
15088.5
69.2723
176.61
15583.9
69.0712
177.61
15913.9
68.8719
178.61
17185.3
68.6743
179.61
17381.4
68.4783
180.61
20956.8
68.2841
181.61
26719.6
68.0914
182.61
27570.7
67.9004
183.61
22744.5
67.711
184.61
17508.6
67.5232
185.61
15654.7
67.337
186.61
15118.7
67.1522
187.61
15568.8
66.969
188.61
15345.7
66.7873
189.61
15303
66.607
190.61
14938
66.4282
191.61
15054.6
66.2508
192.61
14976.5
66.0749
193.61
15205
65.9003
194.61
15306.2
65.7271
195.61
15772.5
65.5553
196.61
15744.1
65.3848
197.61
15599.9
65.2156
198.61
15973.4
65.0477
199.61
15693.5
64.8812
200.61
15909.2
64.7159
201.61
16198.6
64.5518
202.61
15966.9
64.389
203.61
15489.1
64.2274
204.61
16474.9
64.0671
205.61
15956.1
63.9079
206.61
16501.6
63.7499
207.61
15931.6
63.5931
208.61
16115.7
63.4374
209.61
16611.5
63.2829
210.61
16061
63.1295
211.61
16121.6
62.9772
212.61
16202.9
62.8259
213.61
16392.4
62.6758
214.61
16503.7
62.5268
215.61
16364.4
62.3788
216.61
16383.3
62.2318
217.61
15654.5
62.0859
218.61
16709.3
61.941
219.61
16583.1
61.7972
220.61
17054.4
61.6543
221.61
16442.2
61.5124
222.61
16428.8
61.3715
223.61
16359.6
61.2315
224.61
17035.9
61.0925
225.61
16781.8
60.9544
226.61
16532.9
60.8173
227.61
16559.9
60.6811
228.61
17396.7
60.5458
229.61
17337.8
60.4114
230.61
16964.5
60.2779
231.61
17236.6
60.1453
232.61
17187.5
60.0135
233.61
17685.7
59.8826
234.61
17413.9
59.7526
235.61
17348.1
59.6234
236.61
17745.6
59.495
237.61
17594.6
59.3675
238.61
16802.7
59.2408
239.61
17579.8
59.1149
240.61
17782.9
58.9898
241.61
18013.3
58.8655
242.61
18298.8
58.7419
243.61
18710.3
58.6192
244.61
19254
58.4972
245.61
18792.1
58.3759
246.61
18473.2
58.2554
247.61
18138.4
58.1357
248.61
18382
58.0167
249.61
18782.5
57.8984
250.61
18880.3
57.7808
251.61
18841.1
57.664
252.61
19294.1
57.5479
253.61
19521.4
57.4324
254.61
19505.7
57.3177
255.61
19003.9
57.2036
256.61
18726.7
57.0902
257.61
19079.4
56.9775
258.61
19667.5
56.8655
259.61
19860.6
56.7541
260.61
19563
56.6433
261.61
18944.9
56.5332
262.61
19116.6
56.4238
263.61
19366.5
56.315
264.61
19505.1
56.2068
265.61
19660.1
56.0992
266.61
19174.2
55.9922
267.61
19440.8
55.8859
268.61
18765.7
55.7801
269.61
19529.4
55.675
270.61
19357.7
55.5704
271.61
19126.9
55.4665
272.61
19879
55.3631
273.61
19197.5
55.2603
274.61
18743
55.158
275.61
19303.7
55.0564
276.61
18895.3
54.9553
277.61
18912.6
54.8547
278.61
19686.7
54.7547
279.61
20311.5
54.6552
280.61
20127.5
54.5563
281.61
20015.3
54.4579
282.61
19671.3
54.3601
283.61
20388.9
54.2627
284.61
20034.7
54.1659
285.61
19391.1
54.0696
286.61
20300.1
53.9738
287.61
21079.8
53.8786
288.61
20574.4
53.7838
289.61
20595.9
53.6895
290.61
20473.3
53.5957
291.61
20257.8
53.5024
292.61
20594.2
53.4096
293.61
21018
53.3173
294.61
20826.8
53.2255
295.61
20919.6
53.1341
296.61
21146.1
53.0432
297.61
20211.1
52.9528
298.61
20873.9
52.8628
299.61
21184.1
52.7733
300.61
20921.1
52.6842
301.61
20697.5
52.5956
302.61
21410.1
52.5074
303.61
20987.3
52.4197
304.61
21123.2
52.3324
305.61
21283.8
52.2455
306.61
21746.4
52.1591
307.61
22075.1
52.0731
308.61
21570
51.9875
309.61
21459.8
51.9024
310.61
21401.2
51.8176
311.61
21486.6
51.7333
312.61
21931.1
51.6494
313.61
21588.9
51.5659
314.61
21547.3
51.4828
315.61
23607.3
51.4001
316.61
22903.4
51.3178
317.61
22515.3
51.2358
318.61
22090.6
51.1543
319.61
21863
51.0732
320.61
22432.8
50.9924
321.61
23020.4
50.9121
322.61
22759.1
50.8321
323.61
23162.8
50.7525
324.61
22785.6
50.6732
325.61
22876.4
50.5944
326.61
23135.4
50.5159
327.61
23241.3
50.4377
328.61
23401.4
50.36
329.61
23775.4
50.2825
330.61
23535.7
50.2055
331.61
23399.7
50.1288
332.61
23587.6
50.0524
333.61
23859.4
49.9764
334.61
23837.4
49.9007
335.61
23578.4
49.8254
336.61
23574.6
49.7504
337.61
23347.3
49.6758
338.61
23557.3
49.6015
339.61
23525.4
49.5275
340.61
23911.9
49.4539
341.61
23944.1
49.3805
342.61
24266.8
49.3076
343.61
24470.3
49.2349
344.61
24506
49.1625
345.61
24284
49.0905
346.61
24114.6
49.0188
347.61
24776.2
48.9474
348.61
24734.3
48.8763
349.61
24520.9
48.8055
350.61
24584.1
48.735
351.61
25100.2
48.6649
352.61
24669.4
48.595
353.61
25163.5
48.5254
354.61
24937.1
48.4561
355.61
25585.9
48.3872
356.61
25144.7
48.3185
357.61
25014.5
48.2501
358.61
25424.6
48.182
359.61
25447.9
48.1142
360.61
25640.2
48.0466
361.61
26136.4
47.9794
362.61
25730.6
47.9124
363.61
26115.1
47.8458
364.61
25993.9
47.7793
365.61
26140.3
47.7132
366.61
26458.3
47.6474
367.61
25692.8
47.5818
368.61
25948.6
47.5165
369.61
26384.9
47.4514
370.61
26150.8
47.3866
371.61
26184
47.3221
372.61
26887.5
47.2579
373.61
27048.6
47.1939
374.61
26457.8
47.1301
375.61
26742.6
47.0667
376.61
26680.6
47.0035
377.61
26872.7
46.9405
378.61
27118.8
46.8778
379.61
27491.5
46.8153
380.61
26834.9
46.7531
381.61
27169.7
46.6911
382.61
27231.8
46.6294
383.61
27885
46.5679
384.61
27614.6
46.5067
385.61
27740.6
46.4457
386.61
27574.8
46.385
387.61
27769.5
46.3244
388.61
27314.5
46.2642
389.61
28164.6
46.2041
390.61
28215.2
46.1443
391.61
27772.4
46.0847
392.61
27946.3
46.0254
393.61
28072
45.9663
394.61
28986.1
45.9074
395.61
28640.9
45.8487
396.61
27931.4
45.7903
397.61
27800.6
45.732
398.61
29132.5
45.674
399.61
28665.1
45.6163
400.61
28725.3
45.5587
401.61
29136.3
45.5014
402.61
29238.4
45.4442
403.61
29365.2
45.3873
404.61
29056.3
45.3306
405.61
29495.9
45.2741
406.61
28955.4
45.2179
407.61
29597
45.1618
408.61
29193.9
45.1059
409.61
29321.1
45.0503
410.61
29775.9
44.9948
411.61
29377.4
44.9396
412.61
29529.6
44.8846
413.61
29828.1
44.8297
414.61
30018.2
44.7751
415.61
29834
44.7206
416.61
29996.3
44.6664
417.61
30373.1
44.6124
418.61
30314.6
44.5585
419.61
31086.5
44.5049
420.61
30178
44.4514
421.61
30253.2
44.3981
422.61
30820.5
44.3451
423.61
30735
44.2922
424.61
31271
44.2395
425.61
31323.7
44.187
426.61
30857.3
44.1346
427.61
31076.5
44.0825
428.61
30252.6
44.0306
429.61
31432.3
43.9788
430.61
31016
43.9272
431.61
32185.6
43.8758
432.61
31861.4
43.8246
433.61
31905.9
43.7735
434.61
32140.4
43.7226
435.61
31882.5
43.672
436.61
31804.1
43.6214
437.61
32339.6
43.5711
438.61
31953.6
43.5209
439.61
32897.1
43.4709
440.61
32456.5
43.4211
441.61
32561.5
43.3715
442.61
32865.1
43.322
443.61
32733.6
43.2727
444.61
32345.2
43.2235
445.61
32541.6
43.1745
446.61
33078.3
43.1257
447.61
32882.7
43.0771
448.61
32824.1
43.0286
449.61
32145.7
42.9803
450.61
33879.3
42.9321
451.61
33944.5
42.8841
452.61
33463.8
42.8363
453.61
33995.7
42.7886
454.61
34321.7
42.7411
455.61
33712.2
42.6937
456.61
33822.9
42.6465
457.61
35198.5
42.5995
458.61
34655.7
42.5526
459.61
34811.3
42.5059
460.61
34009.6
42.4593
461.61
34859
42.4129
462.61
35005.1
42.3666
463.61
34346.9
42.3205
464.61
34454.5
42.2745
465.61
35311.3
42.2287
466.61
36074.3
42.183
467.61
36582.6
42.1374
468.61
36478
42.0921
469.61
36448.4
42.0468
470.61
36802.7
42.0017
471.61
37718.8
41.9568
472.61
37531.8
41.912
473.61
36481.2
41.8673
474.61
36675.2
41.8228
475.61
36365.3
41.7784
476.61
36290.3
41.7342
477.61
36313.8
41.6901
478.61
36661.6
41.6462
479.61
37912.6
41.6024
480.61
37630.1
41.5587
481.61
37773.1
41.5151
482.61
37597.9
41.4717
483.61
38116.1
41.4285
484.61
38829.8
41.3853
485.61
39484.7
41.3423
486.61
38626
41.2995
487.61
39142.2
41.2567
488.61
40090.2
41.2141
489.61
39201.1
41.1717
490.61
39574.7
41.1293
491.61
38654.2
41.0871
492.61
37852.7
41.0451
493.61
38725.2
41.0031
494.61
37536.5
40.9613
495.61
38446
40.9196
496.61
38553.7
40.878
497.61
37948.7
40.8366
498.61
38602.9
40.7953
499.61
37477.9
40.7541
500.61
37154.9
40.713
501.61
37456.5
40.6721
502.61
38694.4
40.6313
503.61
39504.9
40.5906
504.61
39709.5
40.55
505.61
40968.1
40.5096
506.61
42570.4
40.4692
507.61
44598.6
40.429
508.61
46921.3
40.389
509.61
47219.7
40.349
510.61
44644
40.3091
511.61
42621.2
40.2694
512.61
41423.9
40.2298
513.61
40569.1
40.1903
514.61
39280.1
40.1509
515.61
38828.2
40.1116
516.61
38663.8
40.0725
517.61
37253.6
40.0334
518.61
37653.3
39.9945
519.61
37098.3
39.9557
520.61
35628.9
39.917
521.61
36215.5
39.8784
522.61
35974.2
39.84
523.61
35966.6
39.8016
524.61
36380.7
39.7633
525.61
36111.9
39.7252
526.61
35791
39.6872
527.61
36429.6
39.6492
528.61
35897.4
39.6114
529.61
35974
39.5737
530.61
35544.8
39.5361
531.61
35471.6
39.4986
532.61
36427.2
39.4612
533.61
36693.3
39.424
534.61
36934.2
39.3868
535.61
36730.8
39.3497
536.61
36751.1
39.3127
537.61
35881.9
39.2759
538.61
36926.7
39.2391
539.61
37109.6
39.2025
540.61
36861
39.1659
541.61
37605.2
39.1295
542.61
37078.4
39.0931
543.61
37794.9
39.0569
544.61
37610.4
39.0207
545.61
37185.9
38.9847
546.61
36840.6
38.9487
547.61
37486.6
38.9129
548.61
38197.9
38.8771
549.61
38255.4
38.8415
550.61
37829.5
38.8059
551.61
38162.7
38.7705
552.61
38173.4
38.7351
553.61
37677.9
38.6999
554.61
38357.6
38.6647
555.61
38313.5
38.6296
556.61
38460.4
38.5946
557.61
38614.9
38.5598
558.61
38816.5
38.525
559.61
38655.6
38.4903
560.61
38574.5
38.4557
561.61
38757.5
38.4212
562.61
39066.8
38.3868
563.61
39293.6
38.3525
564.61
39082.4
38.3182
565.61
38439.1
38.2841
566.61
39090.5
38.25
567.61
38152.9
38.2161
568.61
38546.3
38.1822
569.61
38729.4
38.1485
570.61
39550
38.1148
571.61
39425
38.0812
572.61
39291.3
38.0477
573.61
39660
38.0142
574.61
39880.6
37.9809
575.61
39459.2
37.9477
576.61
40366.3
37.9145
577.61
39404.3
37.8814
578.61
39114
37.8485
579.61
39442.1
37.8156
580.61
39894.8
37.7828
581.61
40594.5
37.75
582.61
41142
37.7174
583.61
41314.5
37.6848
584.61
40379.4
37.6524
585.61
40518.3
37.62
586.61
40805.8
37.5877
587.61
40031.3
37.5554
588.61
40935.1
37.5233
589.61
41727.4
37.4912
590.61
41213.8
37.4593
591.61
40366.5
37.4274
592.61
39954.5
37.3956
593.61
40601.8
37.3638
594.61
41550.4
37.3322
595.61
41174.2
37.3006
596.61
39908.5
37.2691
597.61
40004.1
37.2377
598.61
40413.5
37.2064
599.61
38703.8
37.1751
600.61
37789.9
37.1439
601.61
37104.1
37.1129
602.61
37906
37.0818
603.61
38442
37.0509
604.61
38213.2
37.02
605.61
38043.7
36.9892
606.61
38022.1
36.9585
607.61
37336.4
36.9279
608.61
37188.2
36.8973
609.61
37037.1
36.8669
610.61
37581.6
36.8365
611.61
37433.9
36.8061
612.61
37219.2
36.7759
613.61
37174.9
36.7457
614.61
36637.6
36.7156
615.61
37304.1
36.6856
616.61
38202.2
36.6556
617.61
37762.2
36.6257
618.61
37774.4
36.5959
619.61
37669.5
36.5662
620.61
37697.1
36.5365
621.61
38054.5
36.5069
622.61
38066.4
36.4774
623.61
38224
36.4479
624.61
37840
36.4185
625.61
38640.1
36.3892
626.61
38021.2
36.36
627.61
37930.2
36.3308
628.61
38559.7
36.3017
629.61
38650.8
36.2727
630.61
39697.5
36.2437
631.61
39652.1
36.2148
632.61
39516
36.186
633.61
39685.8
36.1573
634.61
39936.1
36.1286
635.61
40013.3
36.1
636.61
39355
36.0714
637.61
39828.9
36.0429
638.61
40402.7
36.0145
639.61
40237.4
35.9862
640.61
39118.1
35.9579
641.61
39216
35.9297
642.61
40227.9
35.9015
643.61
40883.7
35.8734
644.61
40411.3
35.8454
645.61
40176.1
35.8175
646.61
39271.9
35.7896
647.61
38728.6
35.7618
648.61
38762.4
35.734
649.61
38124.8
35.7063
650.61
38105.2
35.6787
651.61
37059.5
35.6511
652.61
36613.2
35.6236
653.61
35633.9
35.5962
654.61
35011.2
35.5688
655.61
34671.8
35.5415
656.61
34094
35.5143
657.61
34108.6
35.4871
658.61
33420.5
35.46
659.61
33424.4
35.4329
660.61
33410.8
35.4059
661.61
33088.8
35.379
662.61
32447.9
35.3521
663.61
32709.7
35.3253
664.61
33042.6
35.2986
665.61
33160.9
35.2719
666.61
32475
35.2452
667.61
32694.2
35.2187
668.61
33356.6
35.1922
669.61
32765.8
35.1657
670.61
32989.5
35.1393
671.61
33519.9
35.113
672.61
33337.6
35.0867
673.61
32959.6
35.0605
674.61
33471.2
35.0343
675.61
33635.7
35.0082
676.61
34246.7
34.9822
677.61
33536.4
34.9562
678.61
33207
34.9303
679.61
33850
34.9044
680.61
34221.8
34.8786
681.61
34150.6
34.8529
682.61
33819.6
34.8272
683.61
34058.2
34.8016
684.61
34473.3
34.776
685.61
34049.1
34.7505
686.61
33899.6
34.725
687.61
34278.1
34.6996
688.61
32797.2
34.6742
689.61
33498.7
34.6489
690.61
33890.1
34.6237
691.61
33946.7
34.5985
692.61
34235.1
34.5733
693.61
35156.4
34.5483
694.61
35035.1
34.5232
695.61
35841.3
34.4983
696.61
35701.8
34.4734
697.61
36570.7
34.4485
698.61
36075.6
34.4237
699.61
36441.3
34.3989
700.61
37434.5
34.3742
701.61
37228.9
34.3496
702.61
37006.4
34.325
703.61
36580.6
34.3004
704.61
35991.7
34.2759
705.61
35388.6
34.2515
706.61
35170.2
34.2271
707.61
35057.6
34.2028
708.61
33893.8
34.1785
709.61
32926.3
34.1543
710.61
32694.2
34.1301
711.61
33807.6
34.106
712.61
34488.3
34.0819
713.61
34494.1
34.0578
714.61
33890.6
34.0339
715.61
33283.8
34.0099
716.61
33660.7
33.9861
717.61
33621.6
33.9622
718.61
33323.5
33.9385
719.61
33790.5
33.9147
720.61
32614.5
33.8911
721.61
32874.5
33.8674
722.61
32554.7
33.8439
723.61
32398.9
33.8203
724.61
33327.5
33.7969
725.61
32870.3
33.7734
726.61
32982
33.7501
727.61
33512.6
33.7267
728.61
33100.5
33.7034
729.61
33131.8
33.6802
730.61
33334.3
33.657
731.61
32653.9
33.6339
732.61
33982.8
33.6108
733.61
33002.2
33.5877
734.61
34189.1
33.5647
735.61
33936.1
33.5418
736.61
33454.2
33.5189
737.61
33577.4
33.496
738.61
34217.1
33.4732
739.61
34104.8
33.4505
740.61
34752.2
33.4277
741.61
34329.4
33.4051
742.61
35765.6
33.3824
743.61
34927.8
33.3599
744.61
34767.5
33.3373
745.61
34605.9
33.3148
746.61
33289.9
33.2924
747.61
34213.2
33.27
748.61
34434
33.2477
749.61
34758.7
33.2254
750.61
35532.1
33.2031
751.61
36253.6
33.1809
752.61
36049.4
33.1587
753.61
37016.7
33.1366
754.61
36226
33.1145
755.61
36693.6
33.0925
756.61
36628
33.0705
757.61
36425.6
33.0485
758.61
36881.5
33.0266
759.61
37754.5
33.0047
760.61
39094.9
32.9829
761.61
39594.6
32.9611
762.61
38731.3
32.9394
763.61
38004.7
32.9177
764.61
36773.6
32.8961
765.61
34402.9
32.8744
766.61
34239.4
32.8529
767.61
33477
32.8314
768.61
33150.5
32.8099
769.61
33271.1
32.7884
770.61
34049.5
32.7671
771.61
34550.4
32.7457
772.61
36645.3
32.7244
773.61
39476.9
32.7031
774.61
41438.5
32.6819
775.61
40153.4
32.6607
776.61
38074.8
32.6396
777.61
33979.1
32.6184
778.61
28033
32.5974
779.61
24923.7
32.5764
780.61
22677.4
32.5554
781.61
22298.1
32.5344
782.61
21216.5
32.5135
783.61
21232.3
32.4927
784.61
21897.1
32.4718
785.61
21911
32.4511
786.61
21791.9
32.4303
787.61
21148.8
32.4096
788.61
21907
32.389
789.61
21630.1
32.3683
790.61
21832.8
32.3478
791.61
21832.1
32.3272
792.61
21321.1
32.3067
793.61
21291.8
32.2862
794.61
21761.1
32.2658
795.61
21710.7
32.2454
796.61
21849.7
32.2251
797.61
21955.4
32.2048
798.61
22421.9
32.1845
799.61
22618.3
32.1642
800.61
22598.5
32.144
801.61
22553.8
32.1239
802.61
22017.1
32.1038
803.61
22553.9
32.0837
804.61
22201.3
32.0636
805.61
21853.8
32.0436
806.61
22413.4
32.0237
807.61
22045.8
32.0037
808.61
22473.1
31.9838
809.61
22395.6
31.964
810.61
22614.9
31.9441
811.61
22934.8
31.9244
812.61
22728.8
31.9046
813.61
22716.2
31.8849
814.61
22215.3
31.8652
815.61
23144.3
31.8456
816.61
22969.7
31.826
817.61
23106.9
31.8064
818.61
22979.1
31.7869
819.61
22954.4
31.7674
820.61
23272.2
31.7479
821.61
22869.9
31.7285
822.61
22656.1
31.7091
823.61
23237.1
31.6898
824.61
23494.1
31.6704
825.61
22487.2
31.6512
826.61
23008
31.6319
827.61
22590.5
31.6127
828.61
22804.9
31.5935
829.61
23743.4
31.5744
830.61
23271.9
31.5553
831.61
23908.5
31.5362
832.61
24016.9
31.5172
833.61
23802
31.4982
834.61
24074.2
31.4792
835.61
23750.9
31.4603
836.61
23729.7
31.4414
837.61
23353.4
31.4225
838.61
23673.5
31.4037
839.61
23816.2
31.3849
840.61
23586.7
31.3661
841.61
23255
31.3474
842.61
23785.1
31.3287
843.61
24017.7
31.31
844.61
23702.4
31.2914
845.61
24006.4
31.2728
846.61
23742.9
31.2542
847.61
24131.1
31.2357
848.61
24420.7
31.2172
849.61
24073.6
31.1987
850.61
23434.9
31.1803
851.61
23902.9
31.1619
852.61
24731.2
31.1435
853.61
24888.2
31.1252
854.61
24476.1
31.1069
855.61
24263.5
31.0886
856.61
23900.7
31.0704
857.61
24634.5
31.0522
858.61
24252.4
31.034
859.61
25344.1
31.0158
860.61
24700.1
30.9977
861.61
24738.9
30.9796
862.61
24833.9
30.9616
863.61
24472.7
30.9436
864.61
25037.1
30.9256
865.61
24872.1
30.9076
866.61
25410.3
30.8897
867.61
25543.3
30.8718
868.61
25483
30.854
869.61
25342
30.8361
870.61
25642.3
30.8183
871.61
25455.6
30.8006
872.61
25806.4
30.7828
873.61
25269.6
30.7651
874.61
26298.9
30.7475
875.61
25984.2
30.7298
876.61
26255.3
30.7122
877.61
25798.5
30.6946
878.61
25474.2
30.6771
879.61
25671.2
30.6595
880.61
26107.7
30.642
881.61
26169
30.6246
882.61
26033.8
30.6071
883.61
25963.1
30.5897
884.61
25735.6
30.5724
885.61
26018
30.555
886.61
26206.8
30.5377
887.61
26436.4
30.5204
888.61
26345.9
30.5031
889.61
26485.8
30.4859
890.61
26141.4
30.4687
891.61
26645.3
30.4515
892.61
26401.1
30.4344
893.61
26494.7
30.4173
894.61
26203.4
30.4002
895.61
26841.3
30.3832
896.61
27708.6
30.3661
897.61
27401.7
30.3491
898.61
27456.4
30.3322
899.61
27491.5
30.3152
900.61
26847.6
30.2983
901.61
26983.5
30.2814
902.61
26921
30.2646
903.61
26357.8
30.2477
904.61
26796.5
30.2309
905.61
27575.9
30.2142
906.61
27468.2
30.1974
907.61
27363.7
30.1807
908.61
27297.7
30.164
909.61
27563.5
30.1474
910.61
27779.7
30.1307
911.61
27677.8
30.1141
912.61
28141.3
30.0975
913.61
28133.8
30.081
914.61
28335.1
30.0645
915.61
28446.5
30.048
916.61
28001.8
30.0315
917.61
28340.7
30.0151
918.61
28912
29.9986
919.61
29112.9
29.9823
920.61
28637.3
29.9659
921.61
27832.9
29.9496
922.61
28025.4
29.9333
923.61
28725.8
29.917
924.61
28315.6
29.9007
925.61
28760.2
29.8845
926.61
28883.4
29.8683
927.61
29056.2
29.8521
928.61
30108.1
29.836
929.61
30619.1
29.8198
930.61
31800
29.8037
931.61
33085.8
29.7877
932.61
31594
29.7716
933.61
31707.6
29.7556
934.61
31263.6
29.7396
935.61
29989.7
29.7236
936.61
29151.5
29.7077
937.61
29248.3
29.6918
938.61
27126.8
29.6759
939.61
27595.6
29.66
940.61
26335.8
29.6442
941.61
26011.1
29.6284
942.61
26104.7
29.6126
943.61
25259.5
29.5968
944.61
24843.6
29.5811
945.61
24253.4
29.5654
946.61
24451.8
29.5497
947.61
24533
29.534
948.61
23436.6
29.5184
949.61
24577
29.5028
950.61
25820.3
29.4872
951.61
28830.2
29.4716
952.61
35099
29.4561
953.61
49171.7
29.4406
954.61
68714.3
29.4251
955.61
79097.2
29.4096
956.61
63369.1
29.3942
957.61
36418.1
29.3787
958.61
24477.6
29.3633
959.61
21452.6
29.348
960.61
21341.4
29.3326
961.61
20550.5
29.3173
962.61
20585.8
29.302
963.61
21439.9
29.2867
964.61
21296.6
29.2715
965.61
21464.1
29.2563
966.61
21243.4
29.2411
967.61
21958.9
29.2259
968.61
21651.9
29.2107
969.61
21251.3
29.1956
970.61
21762.7
29.1805
971.61
21866.1
29.1654
972.61
21384
29.1503
973.61
21062.2
29.1353
974.61
21850.7
29.1203
975.61
21705.8
29.1053
976.61
21608.4
29.0903
977.61
21938.1
29.0754
978.61
21455.8
29.0605
979.61
21298
29.0456
980.61
22211.5
29.0307
981.61
22462.1
29.0158
982.61
22093.8
29.001
983.61
21722.9
28.9862
984.61
21844
28.9714
985.61
22113.1
28.9567
986.61
22282.1
28.9419
987.61
22340.2
28.9272
988.61
21911.6
28.9125
989.61
22846.7
28.8978
990.61
22079.6
28.8832
991.61
21749.2
28.8686
992.61
22123
28.8539
993.61
22648.3
28.8394
994.61
22194.2
28.8248
995.61
22296.6
28.8103
996.61
22835.1
28.7957
997.61
22514.9
28.7812
998.61
22009.4
28.7668
999.61
22251.5
28.7523
1000.61
22409.7
28.7379
1001.61
22631
28.7235
1002.61
22113.2
28.7091
1003.61
22370.1
28.6947
1004.61
22395
28.6804
1005.61
23215.4
28.6661
1006.61
22945.3
28.6518
1007.61
23343.9
28.6375
1008.61
22369.9
28.6232
1009.61
22478.9
28.609
1010.61
22746
28.5948
1011.61
22736.6
28.5806
1012.61
22485.4
28.5664
1013.61
23013.7
28.5523
1014.61
23706.2
28.5381
1015.61
23086.3
28.524
1016.61
23017.2
28.5099
1017.61
23209.4
28.4959
1018.61
23451.7
28.4818
1019.61
24166.6
28.4678
1020.61
22915.4
28.4538
1021.61
23518.9
28.4398
1022.61
23553.3
28.4258
1023.61
23027.4
28.4119
1024.61
23705.6
28.398
1025.61
23561.1
28.3841
1026.61
22853.4
28.3702
1027.61
23333
28.3563
1028.61
23702.3
28.3425
1029.61
23820.9
28.3286
1030.61
24149.8
28.3148
1031.61
24484.6
28.3011
1032.61
24406
28.2873
1033.61
23817.5
28.2736
1034.61
23419.5
28.2598
1035.61
23855.4
28.2461
1036.61
24184.2
28.2324
1037.61
24460.5
28.2188
1038.61
24046.9
28.2051
1039.61
24804
28.1915
1040.61
24239
28.1779
1041.61
24994.1
28.1643
1042.61
24487.4
28.1508
1043.61
24284.1
28.1372
1044.61
24448.8
28.1237
1045.61
24369.4
28.1102
1046.61
24333.4
28.0967
1047.61
24741.1
28.0832
1048.61
24243.3
28.0698
1049.61
24108.4
28.0564
1050.61
23780.5
28.043
1051.61
24408
28.0296
1052.61
25272.2
28.0162
1053.61
24374.8
28.0029
1054.61
25479.8
27.9895
1055.61
24948.2
27.9762
1056.61
24863.8
27.9629
1057.61
24953.7
27.9496
1058.61
24860.1
27.9364
1059.61
24829.9
27.9232
1060.61
25815.3
27.9099
1061.61
25317.1
27.8967
1062.61
25869.6
27.8836
1063.61
26374.9
27.8704
1064.61
25671.9
27.8572
1065.61
26598.3
27.8441
1066.61
25424.2
27.831
1067.61
26389.9
27.8179
1068.61
25475.4
27.8049
1069.61
25417.8
27.7918
1070.61
25805.4
27.7788
1071.61
25397.3
27.7658
1072.61
25498.9
27.7528
1073.61
25605.6
27.7398
1074.61
26194.3
27.7268
1075.61
26289.5
27.7139
1076.61
27224.6
27.701
1077.61
26943.4
27.6881
1078.61
27404.8
27.6752
1079.61
27351.3
27.6623
1080.61
27300.4
27.6495
1081.61
27027.1
27.6366
1082.61
27231.4
27.6238
1083.61
27314.4
27.611
1084.61
27434.5
27.5982
1085.61
27731.2
27.5855
1086.61
27398.2
27.5727
1087.61
27873
27.56
1088.61
27358.1
27.5473
1089.61
27763.4
27.5346
1090.61
26819.7
27.5219
1091.61
26918.7
27.5093
1092.61
27615.9
27.4966
1093.61
27665.8
27.484
1094.61
27777
27.4714
1095.61
28002.4
27.4588
1096.61
28241
27.4462
1097.61
27928.4
27.4337
1098.61
28587
27.4212
1099.61
29583.7
27.4086
1100.61
31229.1
27.3961
1101.61
33027.1
27.3836
1102.61
32668.5
27.3712
1103.61
31457.8
27.3587
1104.61
29731.6
27.3463
1105.61
29033.5
27.3339
1106.61
28839.9
27.3215
1107.61
29130.9
27.3091
1108.61
29390.3
27.2967
1109.61
28414.1
27.2844
1110.61
28991.1
27.2721
1111.61
29419.4
27.2597
1112.61
30099.2
27.2474
1113.61
29966.2
27.2352
1114.61
29322.1
27.2229
1115.61
28557.8
27.2106
1116.61
28303.2
27.1984
1117.61
28100.4
27.1862
1118.61
28284.8
27.174
1119.61
28291.9
27.1618
1120.61
28384.8
27.1497
1121.61
28811.5
27.1375
1122.61
28849.7
27.1254
1123.61
28415.1
27.1132
1124.61
27943.8
27.1011
1125.61
28015.3
27.0891
1126.61
28593.2
27.077
1127.61
28486
27.0649
1128.61
28903.2
27.0529
1129.61
28669.5
27.0409
1130.61
29885.3
27.0289
1131.61
30651.9
27.0169
1132.61
33538
27.0049
1133.61
40620.5
26.993
1134.61
46163.1
26.981
1135.61
48538.9
26.9691
1136.61
44908.7
26.9572
1137.61
37659.1
26.9453
1138.61
33003.1
26.9334
1139.61
29700.4
26.9215
1140.61
27945.5
26.9097
1141.61
27027.7
26.8979
1142.61
27870.6
26.8861
1143.61
27738.2
26.8743
1144.61
27647.1
26.8625
1145.61
27768.2
26.8507
1146.61
28494
26.8389
1147.61
30488.6
26.8272
1148.61
32851
26.8155
1149.61
35017.6
26.8038
1150.61
33298.9
26.7921
1151.61
30498.9
26.7804
1152.61
29861.1
26.7688
1153.61
29681.1
26.7571
1154.61
31073.1
26.7455
1155.61
31084
26.7339
1156.61
31298.8
26.7223
1157.61
31979.5
26.7107
1158.61
32527.9
26.6991
1159.61
31531.3
26.6875
1160.61
29697.4
26.676
1161.61
29036.1
26.6645
1162.61
28067.9
26.653
1163.61
26307.4
26.6415
1164.61
25255.5
26.63
1165.61
24475.3
26.6185
1166.61
24957.3
26.6071
1167.61
24392.6
26.5956
1168.61
23205.6
26.5842
1169.61
22703.9
26.5728
1170.61
21890
26.5614
1171.61
21464
26.55
1172.61
21459.7
26.5387
1173.61
24813
26.5273
1174.61
29234.9
26.516
1175.61
33361.8
26.5047
1176.61
34971
26.4934
1177.61
38778.9
26.4821
1178.61
56391.1
26.4708
1179.61
85066.3
26.4595
1180.61
108366
26.4483
1181.61
96061
26.4371
1182.61
57359.8
26.4258
1183.61
29576.8
26.4146
1184.61
18228.3
26.4034
1185.61
13167.2
26.3923
1186.61
10857.9
26.3811
1187.61
9705
26.37
1188.61
9261.49
26.3588
1189.61
8851.94
26.3477
1190.61
8621
26.3366
1191.61
7997.02
26.3255
1192.61
8076.53
26.3144
1193.61
7905.56
26.3034
1194.61
8018.22
26.2923
1195.61
8412.77
26.2813
1196.61
8531.77
26.2703
1197.61
9108.74
26.2593
1198.61
10421.1
26.2483
1199.61
12445.3
26.2373
1200.61
15800.5
26.2263
1201.61
14773.9
26.2154
1202.61
10951.6
26.2044
1203.61
8846.79
26.1935
1204.61
8143.72
26.1826
1205.61
7917.12
26.1717
1206.61
7438.45
26.1608
1207.61
7530.34
26.1499
1208.61
7350.1
26.1391
1209.61
7004.11
26.1282
1210.61
7168.32
26.1174
1211.61
7166.58
26.1066
1212.61
7154.84
26.0958
1213.61
7215.96
26.085
1214.61
7476.36
26.0742
1215.61
7102.79
26.0635
1216.61
6973.13
26.0527
1217.61
7001.84
26.042
1218.61
7195.88
26.0312
1219.61
7598.77
26.0205
1220.61
7606.59
26.0098
1221.61
7744.39
25.9991
1222.61
7207.57
25.9885
1223.61
7521.6
25.9778
1224.61
7409.5
25.9672
1225.61
7447.67
25.9565
1226.61
7288.99
25.9459
1227.61
7075.86
25.9353
1228.61
6979.76
25.9247
1229.61
6882.51
25.9142
1230.61
7137.34
25.9036
1231.61
6877.87
25.893
1232.61
6508.49
25.8825
1233.61
7056.12
25.872
1234.61
7229.9
25.8614
1235.61
7197.57
25.8509
1236.61
6896.92
25.8405
1237.61
6680.31
25.83
1238.61
6904.96
25.8195
1239.61
7820.09
25.8091
1240.61
7853.14
25.7986
1241.61
8852.12
25.7882
1242.61
9221.77
25.7778
1243.61
9035.21
25.7674
1244.61
8808.02
25.757
1245.61
7796.19
25.7466
1246.61
7510.4
25.7363
1247.61
7078.66
25.7259
1248.61
7047.54
25.7156
1249.61
6450.32
25.7052
1250.61
6911.09
25.6949
1251.61
7161.91
25.6846
1252.61
6939.09
25.6743
1253.61
6644.48
25.6641
1254.61
6939.13
25.6538
1255.61
7016.25
25.6436
1256.61
6554.99
25.6333
1257.61
6544.45
25.6231
1258.61
6745.67
25.6129
1259.61
6625.13
25.6027
1260.61
6850.18
25.5925
1261.61
6539.53
25.5823
1262.61
6533.73
25.5721
1263.61
6585.06
25.562
1264.61
6827.85
25.5518
1265.61
6627.73
25.5417
1266.61
6388.73
25.5316
1267.61
6685.38
25.5215
1268.61
6876.57
25.5114
1269.61
6664.19
25.5013
1270.61
6384.56
25.4912
1271.61
6587.83
25.4812
1272.61
6921.75
25.4711
1273.61
6788.45
25.4611
1274.61
6671.56
25.4511
1275.61
6818.97
25.4411
1276.61
6593.74
25.4311
1277.61
6468.86
25.4211
1278.61
6753.37
25.4111
1279.61
6905.99
25.4012
1280.61
6776.49
25.3912
1281.61
6501.13
25.3813
1282.61
6476.28
25.3713
1283.61
6459.77
25.3614
1284.61
6564.56
25.3515
1285.61
6959.95
25.3416
1286.61
7099.87
25.3317
1287.61
6935.65
25.3219
1288.61
6773.59
25.312
1289.61
6698.94
25.3022
1290.61
6996.49
25.2923
1291.61
6665.35
25.2825
1292.61
6759.45
25.2727
1293.61
6654.49
25.2629
1294.61
6938.87
25.2531
1295.61
7175.18
25.2433
1296.61
7406.9
25.2336
1297.61
7122.63
25.2238
1298.61
7084.91
25.2141
1299.61
7047.75
25.2043
1300.61
6978.56
25.1946
1301.61
7018.51
25.1849
1302.61
6981.53
25.1752
1303.61
7062.36
25.1655
1304.61
6609.17
25.1558
1305.61
6433.83
25.1462
1306.61
6681.74
25.1365
1307.61
6731.39
25.1269
1308.61
7064.39
25.1172
1309.61
7434.37
25.1076
1310.61
7356.02
25.098
1311.61
7006.26
25.0884
1312.61
6809.74
25.0788
1313.61
7031.62
25.0692
1314.61
7085.84
25.0597
1315.61
6996.02
25.0501
1316.61
7278.02
25.0406
1317.61
7343.13
25.031
1318.61
7148.41
25.0215
1319.61
6918.55
25.012
1320.61
7248.71
25.0025
1321.61
7065.72
24.993
1322.61
7317.03
24.9835
1323.61
7348.06
24.974
1324.61
7527.43
24.9646
1325.61
7315.65
24.9551
1326.61
7342.31
24.9457
1327.61
7125.93
24.9363
1328.61
7173.94
24.9269
1329.61
7415.9
24.9175
1330.61
7458.17
24.9081
1331.61
8097.92
24.8987
1332.61
7987.09
24.8893
1333.61
8409.66
24.8799
1334.61
7592.8
24.8706
1335.61
6897.75
24.8613
1336.61
6919.45
24.8519
1337.61
7272.17
24.8426
1338.61
7556.84
24.8333
1339.61
7399.61
24.824
1340.61
7664.4
24.8147
1341.61
7256.48
24.8054
1342.61
7236.88
24.7962
1343.61
7358.4
24.7869
1344.61
7196.38
24.7777
1345.61
7089.13
24.7684
1346.61
7258.17
24.7592
1347.61
6952.56
24.75
1348.61
7021.68
24.7408
1349.61
6946.62
24.7316
1350.61
7388.86
24.7224
1351.61
7362.27
24.7132
1352.61
7439.42
24.7041
1353.61
7214.55
24.6949
1354.61
7455.32
24.6858
1355.61
7503.44
24.6766
1356.61
7381.52
24.6675
1357.61
7643.07
24.6584
1358.61
7843.43
24.6493
1359.61
7326.64
24.6402
1360.61
7081.89
24.6311
1361.61
7480.1
24.622
1362.61
7717.26
24.613
1363.61
7436.54
24.6039
1364.61
8025.87
24.5949
1365.61
7322.73
24.5858
1366.61
7533.07
24.5768
1367.61
7777.59
24.5678
1368.61
7947.37
24.5588
1369.61
7272.13
24.5498
1370.61
7348.91
24.5408
1371.61
7466.85
24.5318
1372.61
8101.13
24.5229
1373.61
7983.67
24.5139
1374.61
7817.58
24.505
1375.61
7454.57
24.496
1376.61
7968.85
24.4871
1377.61
7726.62
24.4782
1378.61
7522.97
24.4693
1379.61
7789.57
24.4604
1380.61
8046.77
24.4515
1381.61
7913.35
24.4426
1382.61
8388.46
24.4338
1383.61
8558.92
24.4249
1384.61
8345.14
24.4161
1385.61
8251.82
24.4072
1386.61
7920.76
24.3984
1387.61
7657.02
24.3896
1388.61
7314
24.3808
1389.61
7931.43
24.372
1390.61
8071.3
24.3632
1391.61
8479.99
24.3544
1392.61
8346.96
24.3456
1393.61
8299.28
24.3369
1394.61
9574.41
24.3281
1395.61
12283.9
24.3194
1396.61
16114.2
24.3106
1397.61
17100.1
24.3019
1398.61
12203.4
24.2932
1399.61
7752.57
24.2845
1400.61
6576.5
24.2758
1401.61
5892.75
24.2671
1402.61
5555.74
24.2584
1403.61
5401.44
24.2497
1404.61
5352.02
24.2411
1405.61
5615.54
24.2324
1406.61
5929.02
24.2238
1407.61
5673.68
24.2152
1408.61
5587.15
24.2065
1409.61
5937.77
24.1979
1410.61
6026.23
24.1893
1411.61
5858.21
24.1807
1412.61
5691.5
24.1721
1413.61
6144.27
24.1636
1414.61
5691.33
24.155
1415.61
5417.48
24.1464
1416.61
5273.52
24.1379
1417.61
5402.8
24.1294
1418.61
5369.09
24.1208
1419.61
5317.37
24.1123
1420.61
4896.02
24.1038
1421.61
5053.24
24.0953
1422.61
5104.39
24.0868
1423.61
4693.3
24.0783
1424.61
4767.42
24.0698
1425.61
5109.4
24.0614
1426.61
5151.5
24.0529
1427.61
6156.71
24.0445
1428.61
7594.27
24.036
1429.61
8023.59
24.0276
1430.61
8726.65
24.0192
1431.61
7998.13
24.0107
1432.61
6550.19
24.0023
1433.61
5520.74
23.9939
1434.61
6662.62
23.9856
1435.61
9485.4
23.9772
1436.61
9251.54
23.9688
1437.61
4883.65
23.9604
1438.61
2204.89
23.9521
1439.61
1745.42
23.9437
1440.61
1624.44
23.9354
1441.61
1620
23.9271
1442.61
1529.31
23.9188
1443.61
1433.28
23.9105
1444.61
1445.69
23.9022
1445.61
1488.45
23.8939
1446.61
1410.25
23.8856
1447.61
1221.92
23.8773
1448.61
1261.24
23.869
1449.61
1268.15
23.8608
1450.61
1078.27
23.8525
1451.61
1141.64
23.8443
1452.61
1166.53
23.8361
1453.61
1195.57
23.8278
1454.61
1373.64
23.8196
1455.61
1495.81
23.8114
1456.61
1309.29
23.8032
1457.61
1645.28
23.795
1458.61
1806.56
23.7868
1459.61
2077.56
23.7787
1460.61
2390.18
23.7705
1461.61
2829.17
23.7624
1462.61
3145.28
23.7542
1463.61
3378.66
23.7461
1464.61
3374.69
23.7379
1465.61
2433.87
23.7298
1466.61
1654.42
23.7217
1467.61
1169.62
23.7136
1468.61
1052.64
23.7055
1469.61
822.528
23.6974
1470.61
759.785
23.6893
1471.61
762.064
23.6813
1472.61
834.402
23.6732
1473.61
839.909
23.6651
1474.61
889.014
23.6571
1475.61
1201.44
23.649
1476.61
1327.82
23.641
1477.61
1638.34
23.633
1478.61
1912.91
23.625
1479.61
1713.02
23.617
1480.61
1821.52
23.609
1481.61
1751.19
23.601
1482.61
1321.72
23.593
1483.61
1181.31
23.585
1484.61
749.546
23.5771
1485.61
520.199
23.5691
1486.61
181.529
23.5611
end of experiment
