VAMAS Surface Chemical Analysis Standard Data Transfer Format 1988 May 4
Not Specified
Not Specified
Not Specified
Not Specified
5
Casa Info Follows CasaXPS Version 2.3.25PR1.0
0
Created by SpecsLab Prodigy, Version 4.54.1-r81613 
SourceAnalyserAngle: Not Specified
CasaRowLabel:FeO
NORM
IRREGULAR
0
1
Exp Variable
d
0
0
0
0
1
Fe 2p
FeO
0
0
0
0
0
0
0
17
Casa Info Follows
0
1
annot comps v2315 ExArea ExConcentration Display 0.0897959 0.140594 RGB(0,0,255) Font(35,34,700,0,Arial)

1
CASA region (*Fe 2p*) (*U 3 Tougaard*) 737.52081 786.7632 16.42 2 0 0 335.44588 551 436 3 (*Fe 2p*) 55.8458 0 16.42
4
CASA comp (*Fe 2p*) (*LF(0.54,10,80,100,6)*) Area 63507.374 1e-020 6383903.5 -1 1 MFWHM 3.8576238 1.07 26.75 -1 1 Position 777.56313 738.01 782.59919 -1 1 RSF 16.42 MASS 55.8458 INDEX 0 (*Fe 2p*) CONST (**) UNCORRECTEDRSF 16.42
CASA comp (*Fe 2p*) (*SGL(30)*) Area 35837.064 1e-020 6383903.5 -1 1 MFWHM 8 1.07 8 -1 1 Position 770.61 770.61 772.61 -1 1 RSF 16.42 MASS 55.8458 INDEX 1 (*Fe 2p*) CONST (**) UNCORRECTEDRSF 16.42
CASA comp (*Fe 2p*) (*LF(0.54,10,80,100,6)*) Area 49042.126 1e-020 6383903.5 -1 1 MFWHM 4.8730051 1.07 26.75 -1 1 Position 764.48234 738.01 782.59919 -1 -13 RSF 16.42 MASS 55.8458 INDEX 0 (*Fe 2p*) CONST (**) UNCORRECTEDRSF 16.42
CASA comp (*Fe 2p*) (*SGL(30)*) Area 17705.155 1e-020 6383903.5 -1 1 MFWHM 7.8295407 1.07 8 -1 1 Position 756.72212 756.11 759.61 -1 1 RSF 16.42 MASS 55.8458 INDEX 1 (*Fe 2p*) CONST (**) UNCORRECTEDRSF 16.42
FeO.vms Dir:C:\Users\pielsticker\Desktop\fe references\
Fe2p_FeO.vms Dir:C:\Users\pielsticker\Desktop\fe references\

Sum of 2 spectra in column containing 2 scans
C:\Users\pielsticker\Lukas\MPI-CEC\Projects\Reference data\Fe\iron references\FeO_analyzed.vms
XPS
0
Al
1486.61
1e+037
1e+037
1e+037
1e+037
1e+037
FAT
1e+037
1e+037
1e+037
1e+037
1e+037
1e+037
1e+037
1e+037
Fe
2p
-1
3
Kinetic Energy
eV
Intensity
d
transmission
d
pulse counting
2
1
1e+037
1e+037
1e+037
1e+037
3
MFP Exponent
d
0
ESCAPE DEPTH TYPE
d
1
PROPAGATION_CONVERGED
d
1
3363
0
1
0
1
0
1
736.61
12516.9
2.77354
736.66
12304.9
2.77345
736.71
12369
2.77335
736.76
12450
2.77326
736.81
12465.5
2.77316
736.86
12320.6
2.77307
736.91
12346.7
2.77297
736.96
12383.2
2.77288
737.01
12513.4
2.77278
737.06
12351.3
2.77269
737.11
12198.3
2.7726
737.16
12262.2
2.7725
737.21
12152.7
2.77241
737.26
12243.7
2.77231
737.31
12616.7
2.77222
737.36
12386.5
2.77212
737.41
12306.9
2.77203
737.46
12352.2
2.77193
737.51
12407.5
2.77184
737.56
12473.1
2.77174
737.61
12388.2
2.77165
737.66
12364.1
2.77156
737.71
12277.8
2.77146
737.76
12322.9
2.77137
737.81
12392.7
2.77127
737.86
12188.7
2.77118
737.91
12432.9
2.77108
737.96
12610.8
2.77099
738.01
12465.2
2.77089
738.06
12491.2
2.7708
738.11
12319.5
2.77071
738.16
12493.8
2.77061
738.21
12406.7
2.77052
738.26
12436.3
2.77042
738.31
12383.4
2.77033
738.36
12482.3
2.77023
738.41
12469.8
2.77014
738.46
12457.7
2.77004
738.51
12483.2
2.76995
738.56
12611.2
2.76986
738.61
12760.7
2.76976
738.66
12650.8
2.76967
738.71
12436.7
2.76957
738.76
12400.7
2.76948
738.81
12687.8
2.76938
738.86
12413.3
2.76929
738.91
12635.2
2.7692
738.96
12572.2
2.7691
739.01
12579.8
2.76901
739.06
12652
2.76891
739.11
12536.5
2.76882
739.16
12567.8
2.76873
739.21
12453
2.76863
739.26
12589.7
2.76854
739.31
12634.8
2.76844
739.36
12607.3
2.76835
739.41
12402
2.76825
739.46
12652.9
2.76816
739.51
12767.1
2.76807
739.56
12713.4
2.76797
739.61
12668.3
2.76788
739.66
12691.2
2.76778
739.71
12508.5
2.76769
739.76
12672.5
2.7676
739.81
12757.7
2.7675
739.86
12844.8
2.76741
739.91
12750.4
2.76731
739.96
12704.5
2.76722
740.01
12826.6
2.76713
740.06
12687.9
2.76703
740.11
12758.8
2.76694
740.16
12725.8
2.76684
740.21
12640.4
2.76675
740.26
12572.6
2.76666
740.31
12803.5
2.76656
740.36
12703.2
2.76647
740.41
12853.4
2.76637
740.46
12812.2
2.76628
740.51
12946
2.76619
740.56
12838.3
2.76609
740.61
12724.5
2.766
740.66
12550.3
2.7659
740.71
12770.9
2.76581
740.76
12824.9
2.76572
740.81
12795.2
2.76562
740.86
12958.8
2.76553
740.91
12704.1
2.76543
740.96
12783.4
2.76534
741.01
12876.2
2.76525
741.06
13044.7
2.76515
741.11
12882.8
2.76506
741.16
12682
2.76497
741.21
12785.5
2.76487
741.26
12936.7
2.76478
741.31
12808.2
2.76468
741.36
13128.9
2.76459
741.41
12956.7
2.7645
741.46
12876.2
2.7644
741.51
12665.8
2.76431
741.56
12897.7
2.76422
741.61
13040.8
2.76412
741.66
13033.6
2.76403
741.71
12992.5
2.76393
741.76
12943.4
2.76384
741.81
13196.6
2.76375
741.86
13060
2.76365
741.91
12958.6
2.76356
741.96
13018.2
2.76347
742.01
13012.4
2.76337
742.06
12988.1
2.76328
742.11
12896.1
2.76318
742.16
13255.4
2.76309
742.21
13038.5
2.763
742.26
13124.7
2.7629
742.31
12927.3
2.76281
742.36
12860.3
2.76272
742.41
12980.3
2.76262
742.46
13091.5
2.76253
742.51
12880.7
2.76244
742.56
12880.9
2.76234
742.61
13228.9
2.76225
742.66
13180.5
2.76216
742.71
13122.1
2.76206
742.76
13118.2
2.76197
742.81
12837.5
2.76187
742.86
12978.4
2.76178
742.91
13010
2.76169
742.96
13047.1
2.76159
743.01
12923.5
2.7615
743.06
12874.9
2.76141
743.11
13033.7
2.76131
743.16
13099.7
2.76122
743.21
12987.6
2.76113
743.26
12998.6
2.76103
743.31
12959.8
2.76094
743.36
13056.1
2.76085
743.41
13097.8
2.76075
743.46
13245.7
2.76066
743.51
13131.2
2.76057
743.56
13014.6
2.76047
743.61
13164
2.76038
743.66
12963.4
2.76029
743.71
12886.1
2.76019
743.76
12848.7
2.7601
743.81
12920.7
2.76001
743.86
13044.7
2.75991
743.91
12997.3
2.75982
743.96
13317.7
2.75973
744.01
13163.1
2.75963
744.06
13052
2.75954
744.11
13172.7
2.75945
744.16
12954
2.75935
744.21
13117.5
2.75926
744.26
13140.9
2.75917
744.31
13145
2.75907
744.36
13080.4
2.75898
744.41
13087.7
2.75889
744.46
12773.2
2.75879
744.51
12953
2.7587
744.56
12922.9
2.75861
744.61
12886.2
2.75852
744.66
12950.9
2.75842
744.71
12997.8
2.75833
744.76
13005.1
2.75824
744.81
12908.9
2.75814
744.86
12999.1
2.75805
744.91
12929.2
2.75796
744.96
12911.3
2.75786
745.01
13072.4
2.75777
745.06
12755.2
2.75768
745.11
12730.1
2.75758
745.16
13079.3
2.75749
745.21
13014.4
2.7574
745.26
12766.7
2.7573
745.31
12926.6
2.75721
745.36
13014.8
2.75712
745.41
12823
2.75703
745.46
12810.3
2.75693
745.51
12737.6
2.75684
745.56
12904.4
2.75675
745.61
13023.3
2.75665
745.66
12866
2.75656
745.71
12932.8
2.75647
745.76
13000.6
2.75637
745.81
12787
2.75628
745.86
12784.3
2.75619
745.91
12874.9
2.7561
745.96
12841.2
2.756
746.01
12910.5
2.75591
746.06
12721.9
2.75582
746.11
12994.9
2.75572
746.16
12951
2.75563
746.21
12976.3
2.75554
746.26
12861.1
2.75545
746.31
12740.7
2.75535
746.36
12774.4
2.75526
746.41
12992.3
2.75517
746.46
12891.5
2.75507
746.51
12726.7
2.75498
746.56
12682.2
2.75489
746.61
12783.9
2.7548
746.66
12731.3
2.7547
746.71
12794.6
2.75461
746.76
12876.6
2.75452
746.81
13003.4
2.75443
746.86
12916.6
2.75433
746.91
12765.4
2.75424
746.96
12953.1
2.75415
747.01
12731.9
2.75405
747.06
12749.2
2.75396
747.11
12884.7
2.75387
747.16
12787.2
2.75378
747.21
13017.8
2.75368
747.26
12823
2.75359
747.31
12719.8
2.7535
747.36
12917.5
2.75341
747.41
12917.7
2.75331
747.46
12942.3
2.75322
747.51
12842.5
2.75313
747.56
12849.9
2.75304
747.61
12968.3
2.75294
747.66
12997.5
2.75285
747.71
12827.3
2.75276
747.76
12821.4
2.75266
747.81
12747.8
2.75257
747.86
12965.2
2.75248
747.91
12901
2.75239
747.96
12896.4
2.75229
748.01
12985.6
2.7522
748.06
13088.2
2.75211
748.11
13058.7
2.75202
748.16
12841.4
2.75192
748.21
13066.2
2.75183
748.26
12786.6
2.75174
748.31
12743.5
2.75165
748.36
12944
2.75155
748.41
13008.3
2.75146
748.46
12765.8
2.75137
748.51
12860.4
2.75128
748.56
12739.3
2.75119
748.61
12960.1
2.75109
748.66
13034.2
2.751
748.71
12932.3
2.75091
748.76
13067.2
2.75082
748.81
13256.1
2.75072
748.86
13125.5
2.75063
748.91
13045.4
2.75054
748.96
13171.7
2.75045
749.01
13075.9
2.75035
749.06
12884
2.75026
749.11
13126.1
2.75017
749.16
13105.4
2.75008
749.21
12840.7
2.74998
749.26
13035.2
2.74989
749.31
13104.2
2.7498
749.36
13297.1
2.74971
749.41
13058.3
2.74962
749.46
13010.3
2.74952
749.51
13023
2.74943
749.56
13046.5
2.74934
749.61
13290.3
2.74925
749.66
13354.7
2.74915
749.71
13450.3
2.74906
749.76
13420.1
2.74897
749.81
13265.2
2.74888
749.86
13245.1
2.74879
749.91
13187.3
2.74869
749.96
13285.9
2.7486
750.01
13286.6
2.74851
750.06
13285.1
2.74842
750.11
13485.2
2.74832
750.16
13523.7
2.74823
750.21
13457.1
2.74814
750.26
13244.5
2.74805
750.31
13506.7
2.74796
750.36
13510.7
2.74786
750.41
13321.1
2.74777
750.46
13304.3
2.74768
750.51
13694.5
2.74759
750.56
13509.6
2.7475
750.61
13267.1
2.7474
750.66
13298.8
2.74731
750.71
13676.3
2.74722
750.76
13630.4
2.74713
750.81
13596.4
2.74704
750.86
13570
2.74694
750.91
13605.9
2.74685
750.96
13631.7
2.74676
751.01
13825.4
2.74667
751.06
13755.3
2.74658
751.11
13546.9
2.74648
751.16
13765.9
2.74639
751.21
13603.5
2.7463
751.26
13619
2.74621
751.31
13580.3
2.74612
751.36
13790
2.74602
751.41
13557.5
2.74593
751.46
13694.4
2.74584
751.51
13692.2
2.74575
751.56
13601.3
2.74566
751.61
13791.5
2.74557
751.66
13725.4
2.74547
751.71
13904.3
2.74538
751.76
13596.5
2.74529
751.81
13792
2.7452
751.86
13725.3
2.74511
751.91
13753.4
2.74501
751.96
13951.4
2.74492
752.01
13681.8
2.74483
752.06
13637.5
2.74474
752.11
14136.5
2.74465
752.16
13974.2
2.74456
752.21
13928.6
2.74446
752.26
14065.4
2.74437
752.31
13912.1
2.74428
752.36
14115.3
2.74419
752.41
14026.9
2.7441
752.46
14286.5
2.74401
752.51
14188.4
2.74391
752.56
14091.2
2.74382
752.61
14104.3
2.74373
752.66
14156.9
2.74364
752.71
14273.7
2.74355
752.76
14298.8
2.74346
752.81
14362.7
2.74336
752.86
14402.8
2.74327
752.91
14209.2
2.74318
752.96
14111.4
2.74309
753.01
14152.2
2.743
753.06
14099.3
2.74291
753.11
14219.2
2.74281
753.16
14205.2
2.74272
753.21
14257.7
2.74263
753.26
14460
2.74254
753.31
14435.9
2.74245
753.36
14327.7
2.74236
753.41
14528.5
2.74226
753.46
14414
2.74217
753.51
14411.2
2.74208
753.56
14640.6
2.74199
753.61
14429.8
2.7419
753.66
14564.2
2.74181
753.71
14571.8
2.74172
753.76
14386.1
2.74162
753.81
14393
2.74153
753.86
14860.7
2.74144
753.91
14677.9
2.74135
753.96
14848.8
2.74126
754.01
14827.7
2.74117
754.06
14716.3
2.74108
754.11
14834.7
2.74098
754.16
14582.6
2.74089
754.21
14817.2
2.7408
754.26
15010
2.74071
754.31
15041
2.74062
754.36
14939.9
2.74053
754.41
15072.5
2.74044
754.46
15107.6
2.74034
754.51
14941.6
2.74025
754.56
15114.2
2.74016
754.61
15121.4
2.74007
754.66
14901.6
2.73998
754.71
15160
2.73989
754.76
15100.3
2.7398
754.81
15118.1
2.73971
754.86
15230.8
2.73961
754.91
15377.2
2.73952
754.96
15319.3
2.73943
755.01
15218.5
2.73934
755.06
15256.3
2.73925
755.11
15434.9
2.73916
755.16
15717.8
2.73907
755.21
15477.9
2.73898
755.26
15593.4
2.73888
755.31
15710.9
2.73879
755.36
15542.8
2.7387
755.41
15588.4
2.73861
755.46
15578.8
2.73852
755.51
15562
2.73843
755.56
15827.4
2.73834
755.61
15767.1
2.73825
755.66
15941.5
2.73816
755.71
16151.1
2.73806
755.76
16079.8
2.73797
755.81
16093.3
2.73788
755.86
16028.5
2.73779
755.91
16110.8
2.7377
755.96
16108
2.73761
756.01
15975
2.73752
756.06
16048.5
2.73743
756.11
15936.6
2.73734
756.16
15938.7
2.73724
756.21
15932.1
2.73715
756.26
16057.2
2.73706
756.31
15949.2
2.73697
756.36
16312.5
2.73688
756.41
16205.5
2.73679
756.46
16132.1
2.7367
756.51
16202.6
2.73661
756.56
16391.8
2.73652
756.61
16311.4
2.73643
756.66
16249.9
2.73634
756.71
16345.8
2.73624
756.76
16458.9
2.73615
756.81
16478.1
2.73606
756.86
16376
2.73597
756.91
16457.2
2.73588
756.96
16225
2.73579
757.01
16261.8
2.7357
757.06
16337.4
2.73561
757.11
16275.6
2.73552
757.16
16103.7
2.73543
757.21
16309.2
2.73534
757.26
16450.3
2.73524
757.31
16511.3
2.73515
757.36
16248.8
2.73506
757.41
16385.1
2.73497
757.46
16349.4
2.73488
757.51
16472
2.73479
757.56
16196.4
2.7347
757.61
16499.7
2.73461
757.66
16441.8
2.73452
757.71
16223
2.73443
757.76
16327.9
2.73434
757.81
16391.5
2.73425
757.86
16395.5
2.73416
757.91
16304.3
2.73406
757.96
16293.4
2.73397
758.01
16191.3
2.73388
758.06
16150
2.73379
758.11
16364.9
2.7337
758.16
16395.1
2.73361
758.21
16266.8
2.73352
758.26
16296.8
2.73343
758.31
16367.6
2.73334
758.36
16343.4
2.73325
758.41
16090.4
2.73316
758.46
16014.2
2.73307
758.51
16342.8
2.73298
758.56
16296.2
2.73289
758.61
16132.7
2.7328
758.66
16028.1
2.73271
758.71
16192.7
2.73261
758.76
16137.3
2.73252
758.81
16255.3
2.73243
758.86
16097.3
2.73234
758.91
15955.2
2.73225
758.96
16129.3
2.73216
759.01
16244.6
2.73207
759.06
16073.4
2.73198
759.11
16416.4
2.73189
759.16
16401.7
2.7318
759.21
16306
2.73171
759.26
16189
2.73162
759.31
16226.9
2.73153
759.36
16376.7
2.73144
759.41
16174.8
2.73135
759.46
16299.9
2.73126
759.51
16107
2.73117
759.56
16149.3
2.73108
759.61
16255.6
2.73099
759.66
16262.3
2.7309
759.71
16467.3
2.73081
759.76
16698.1
2.73072
759.81
16391.6
2.73062
759.86
16408.4
2.73053
759.91
16688.4
2.73044
759.96
16561.9
2.73035
760.01
16644.1
2.73026
760.06
16645.9
2.73017
760.11
16969.2
2.73008
760.16
16883.9
2.72999
760.21
17071.4
2.7299
760.26
16733.9
2.72981
760.31
17005.8
2.72972
760.36
17032.5
2.72963
760.41
16952.2
2.72954
760.46
16846.8
2.72945
760.51
17193.7
2.72936
760.56
16985.2
2.72927
760.61
17263.4
2.72918
760.66
17701.1
2.72909
760.71
17448.8
2.729
760.76
17381.6
2.72891
760.81
17362.6
2.72882
760.86
17615
2.72873
760.91
17594.2
2.72864
760.96
17669.6
2.72855
761.01
17945.2
2.72846
761.06
17880.6
2.72837
761.11
17829.9
2.72828
761.16
17546.6
2.72819
761.21
18040.2
2.7281
761.26
18053.5
2.72801
761.31
18005.7
2.72792
761.36
18250
2.72783
761.41
18418.1
2.72774
761.46
18566.8
2.72765
761.51
18537.3
2.72756
761.56
18549.1
2.72747
761.61
18552.1
2.72738
761.66
18761.4
2.72729
761.71
18876.1
2.7272
761.76
19047.9
2.72711
761.81
19145.4
2.72702
761.86
19027.3
2.72693
761.91
19185.2
2.72684
761.96
19214.7
2.72675
762.01
19591.6
2.72666
762.06
19476.6
2.72657
762.11
19602.5
2.72648
762.16
19502.2
2.72639
762.21
20002.6
2.7263
762.26
19571
2.72621
762.31
19544.8
2.72612
762.36
20063.7
2.72603
762.41
20046.6
2.72594
762.46
20005.1
2.72585
762.51
20200.2
2.72576
762.56
20232.5
2.72567
762.61
19991
2.72558
762.66
20322.5
2.72549
762.71
20339.3
2.7254
762.76
20260.1
2.72531
762.81
20527.1
2.72522
762.86
20704.4
2.72513
762.91
20726.7
2.72504
762.96
20185.3
2.72495
763.01
20423.1
2.72486
763.06
20770.2
2.72477
763.11
20427.2
2.72468
763.16
20380.1
2.72459
763.21
20849.3
2.7245
763.26
20773.5
2.72441
763.31
20410.5
2.72432
763.36
20882.9
2.72423
763.41
20793.5
2.72414
763.46
20891
2.72405
763.51
20496.2
2.72396
763.56
20782.3
2.72387
763.61
20548.3
2.72378
763.66
20542.8
2.72369
763.71
20267.2
2.7236
763.76
19899.4
2.72351
763.81
20429.4
2.72342
763.86
20345.9
2.72334
763.91
20187.4
2.72325
763.96
20180.6
2.72316
764.01
20198.2
2.72307
764.06
20113.8
2.72298
764.11
19892.7
2.72289
764.16
19599.3
2.7228
764.21
19560.3
2.72271
764.26
19381.3
2.72262
764.31
19546.7
2.72253
764.36
19194.3
2.72244
764.41
19162.3
2.72235
764.46
18867.9
2.72226
764.51
18733.1
2.72217
764.56
18796.4
2.72208
764.61
18695.7
2.72199
764.66
18560.4
2.7219
764.71
18278.4
2.72181
764.76
18194.4
2.72172
764.81
17935.1
2.72163
764.86
17720.4
2.72154
764.91
17600.1
2.72145
764.96
17581.7
2.72137
765.01
17289
2.72128
765.06
17169.1
2.72119
765.11
17238.2
2.7211
765.16
16918.7
2.72101
765.21
16745.1
2.72092
765.26
16886.4
2.72083
765.31
16525.5
2.72074
765.36
16268.2
2.72065
765.41
15953.5
2.72056
765.46
15986.2
2.72047
765.51
15872.4
2.72038
765.56
15818
2.72029
765.61
15675.4
2.7202
765.66
15532.5
2.72011
765.71
15191.5
2.72002
765.76
15218.2
2.71994
765.81
14987.2
2.71985
765.86
14856.6
2.71976
765.91
14785.6
2.71967
765.96
14703
2.71958
766.01
14633.2
2.71949
766.06
14271.1
2.7194
766.11
14202.3
2.71931
766.16
14409.9
2.71922
766.21
14335.3
2.71913
766.26
13962.9
2.71904
766.31
13982.3
2.71895
766.36
14156.2
2.71886
766.41
14063
2.71878
766.46
13847.5
2.71869
766.51
13960.8
2.7186
766.56
13869.1
2.71851
766.61
13717.4
2.71842
766.66
13725.6
2.71833
766.71
13555.1
2.71824
766.76
13777.9
2.71815
766.81
13708.4
2.71806
766.86
13748.8
2.71797
766.91
13634.6
2.71788
766.96
13456
2.71779
767.01
13371.9
2.71771
767.06
13555.2
2.71762
767.11
13511.6
2.71753
767.16
13346.7
2.71744
767.21
13360.1
2.71735
767.26
13184.4
2.71726
767.31
13283
2.71717
767.36
13282.8
2.71708
767.41
13286.6
2.71699
767.46
13182.6
2.7169
767.51
13356.3
2.71682
767.56
13274
2.71673
767.61
13215.7
2.71664
767.66
13072
2.71655
767.71
13140.5
2.71646
767.76
13174.1
2.71637
767.81
13185.7
2.71628
767.86
13176.2
2.71619
767.91
13054.1
2.7161
767.96
13210.6
2.71601
768.01
13120.2
2.71593
768.06
13156.4
2.71584
768.11
13326.1
2.71575
768.16
13173.8
2.71566
768.21
13368.2
2.71557
768.26
13357.7
2.71548
768.31
13401.4
2.71539
768.36
13293.5
2.7153
768.41
13388.8
2.71521
768.46
13283.4
2.71513
768.51
13499.7
2.71504
768.56
13430.2
2.71495
768.61
13420.3
2.71486
768.66
13526.8
2.71477
768.71
13577.9
2.71468
768.76
13587.8
2.71459
768.81
13830
2.7145
768.86
13779.3
2.71442
768.91
13794.6
2.71433
768.96
13820.5
2.71424
769.01
13971.8
2.71415
769.06
14069.2
2.71406
769.11
14054
2.71397
769.16
14219.9
2.71388
769.21
14010.2
2.71379
769.26
14211.5
2.71371
769.31
14420.6
2.71362
769.36
14066
2.71353
769.41
13957.8
2.71344
769.46
14342.5
2.71335
769.51
14375.2
2.71326
769.56
14280.3
2.71317
769.61
14398.4
2.71309
769.66
14289.3
2.713
769.71
14627.6
2.71291
769.76
14701.1
2.71282
769.81
14561.4
2.71273
769.86
14622.6
2.71264
769.91
14628.8
2.71255
769.96
14912.9
2.71246
770.01
15125.9
2.71238
770.06
14877.4
2.71229
770.11
15113.5
2.7122
770.16
15141.4
2.71211
770.21
15172
2.71202
770.26
15140.2
2.71193
770.31
15080.2
2.71185
770.36
15074.1
2.71176
770.41
14933.2
2.71167
770.46
15215.2
2.71158
770.51
15170.9
2.71149
770.56
15172.7
2.7114
770.61
15164
2.71131
770.66
15330.5
2.71123
770.71
15205.1
2.71114
770.76
15282
2.71105
770.81
15483.9
2.71096
770.86
15490.4
2.71087
770.91
15407.3
2.71078
770.96
15258.2
2.7107
771.01
15311.9
2.71061
771.06
15383.6
2.71052
771.11
15490.6
2.71043
771.16
15282
2.71034
771.21
15465.1
2.71025
771.26
15518.5
2.71017
771.31
15486.8
2.71008
771.36
15428.7
2.70999
771.41
15456
2.7099
771.46
15380.5
2.70981
771.51
15544.4
2.70972
771.56
15503
2.70964
771.61
15469.2
2.70955
771.66
15523.9
2.70946
771.71
15651.7
2.70937
771.76
15414.1
2.70928
771.81
15521.2
2.70919
771.86
15657
2.70911
771.91
15705.5
2.70902
771.96
15526.3
2.70893
772.01
15623.2
2.70884
772.06
15679.8
2.70875
772.11
15772.6
2.70866
772.16
15796.8
2.70858
772.21
15769.6
2.70849
772.26
15643.5
2.7084
772.31
15575.7
2.70831
772.36
15635.7
2.70822
772.41
15690.6
2.70814
772.46
15683.5
2.70805
772.51
16006.6
2.70796
772.56
15924.6
2.70787
772.61
15928.3
2.70778
772.66
16164.6
2.70769
772.71
16141.6
2.70761
772.76
16276.1
2.70752
772.81
16174.2
2.70743
772.86
16104.7
2.70734
772.91
16126.6
2.70725
772.96
16395.9
2.70717
773.01
16390.8
2.70708
773.06
16571.5
2.70699
773.11
16600.6
2.7069
773.16
16296.2
2.70681
773.21
16778.1
2.70673
773.26
16726.6
2.70664
773.31
16784.5
2.70655
773.36
16890.4
2.70646
773.41
16935.7
2.70637
773.46
17105.4
2.70629
773.51
17382.7
2.7062
773.56
17521
2.70611
773.61
17623.2
2.70602
773.66
17540.5
2.70593
773.71
17485.7
2.70585
773.76
17757
2.70576
773.81
17598.1
2.70567
773.86
17991
2.70558
773.91
17973.5
2.7055
773.96
18120.8
2.70541
774.01
18173.6
2.70532
774.06
18432.3
2.70523
774.11
18740.3
2.70514
774.16
18550.7
2.70506
774.21
18674.1
2.70497
774.26
18782.4
2.70488
774.31
18907.6
2.70479
774.36
19271.4
2.7047
774.41
19542.4
2.70462
774.46
19254.4
2.70453
774.51
19689.8
2.70444
774.56
19510.5
2.70435
774.61
19778
2.70427
774.66
19974.4
2.70418
774.71
19844.1
2.70409
774.76
20216.7
2.704
774.81
19887
2.70391
774.86
20442.3
2.70383
774.91
20608.1
2.70374
774.96
20924.5
2.70365
775.01
20772.2
2.70356
775.06
21059.9
2.70348
775.11
21230.5
2.70339
775.16
21404
2.7033
775.21
21393.9
2.70321
775.26
21362.5
2.70313
775.31
21532
2.70304
775.36
21736.9
2.70295
775.41
22004.6
2.70286
775.46
21958.5
2.70277
775.51
22078.6
2.70269
775.56
22193.9
2.7026
775.61
22285.8
2.70251
775.66
22246.4
2.70242
775.71
22666
2.70234
775.76
22693
2.70225
775.81
22886
2.70216
775.86
22911.9
2.70207
775.91
22899.5
2.70199
775.96
23176.2
2.7019
776.01
23335.1
2.70181
776.06
23589.3
2.70172
776.11
23708.7
2.70164
776.16
23646.6
2.70155
776.21
23720.5
2.70146
776.26
23965.4
2.70137
776.31
23680.5
2.70129
776.36
23947.8
2.7012
776.41
23878.8
2.70111
776.46
23941.4
2.70102
776.51
24040.7
2.70094
776.56
23511.5
2.70085
776.61
23963.2
2.70076
776.66
23827.1
2.70067
776.71
23687
2.70059
776.76
23664.4
2.7005
776.81
23636.3
2.70041
776.86
23313
2.70032
776.91
23263.8
2.70024
776.96
23251.9
2.70015
777.01
23218.6
2.70006
777.06
23107.2
2.69998
777.11
22836.1
2.69989
777.16
22591
2.6998
777.21
22608.6
2.69971
777.26
22433.6
2.69963
777.31
22594
2.69954
777.36
22138.9
2.69945
777.41
22024.4
2.69936
777.46
21632.8
2.69928
777.51
21459.1
2.69919
777.56
21257.7
2.6991
777.61
21103.8
2.69901
777.66
20765.5
2.69893
777.71
20260.3
2.69884
777.76
20221.6
2.69875
777.81
19808.1
2.69867
777.86
19361.3
2.69858
777.91
18805.3
2.69849
777.96
18595.3
2.6984
778.01
17972.3
2.69832
778.06
17765.6
2.69823
778.11
17233.2
2.69814
778.16
16943.6
2.69806
778.21
16605
2.69797
778.26
16114.3
2.69788
778.31
15603.5
2.69779
778.36
15338.7
2.69771
778.41
14829.8
2.69762
778.46
14482
2.69753
778.51
13869
2.69745
778.56
13601.8
2.69736
778.61
12828.7
2.69727
778.66
12554.3
2.69718
778.71
12083.8
2.6971
778.76
11907.3
2.69701
778.81
11237.6
2.69692
778.86
10979.9
2.69684
778.91
10182.7
2.69675
778.96
10035.7
2.69666
779.01
9574.43
2.69657
779.06
9309.98
2.69649
779.11
8942.98
2.6964
779.16
8613.5
2.69631
779.21
8340.97
2.69623
779.26
8089.68
2.69614
779.31
7690.45
2.69605
779.36
7516.83
2.69597
779.41
7191.47
2.69588
779.46
6880.43
2.69579
779.51
6558.2
2.69571
779.56
6313.38
2.69562
779.61
6258.27
2.69553
779.66
6130.52
2.69544
779.71
5774.53
2.69536
779.76
5731.43
2.69527
779.81
5540.15
2.69518
779.86
5346.97
2.6951
779.91
5182.35
2.69501
779.96
5032.4
2.69492
780.01
4921.68
2.69484
780.06
4843.57
2.69475
780.11
4732.52
2.69466
780.16
4629.25
2.69458
780.21
4578.65
2.69449
780.26
4366.28
2.6944
780.31
4282.45
2.69432
780.36
4277.48
2.69423
780.41
4081.87
2.69414
780.46
4036.97
2.69405
780.51
4032
2.69397
780.56
3871.15
2.69388
780.61
3874.02
2.69379
780.66
3739.6
2.69371
780.71
3736.88
2.69362
780.76
3622.93
2.69353
780.81
3575.98
2.69345
780.86
3565.67
2.69336
780.91
3432.25
2.69327
780.96
3583.9
2.69319
781.01
3462.7
2.6931
781.06
3468.55
2.69301
781.11
3423.55
2.69293
781.16
3310.16
2.69284
781.21
3319.82
2.69275
781.26
3360.78
2.69267
781.31
3308.87
2.69258
781.36
3228.51
2.69249
781.41
3286.56
2.69241
781.46
3278.25
2.69232
781.51
3281.06
2.69223
781.56
3268.83
2.69215
781.61
3260.76
2.69206
781.66
3211.46
2.69197
781.71
3167.2
2.69189
781.76
3202.6
2.6918
781.81
3228.5
2.69172
781.86
3149.82
2.69163
781.91
3166.4
2.69154
781.96
3092.8
2.69146
782.01
3073.05
2.69137
782.06
3210.75
2.69128
782.11
3183.55
2.6912
782.16
3165.56
2.69111
782.21
3118.33
2.69102
782.26
3079.63
2.69094
782.31
3101.82
2.69085
782.36
3034.35
2.69076
782.41
3031.89
2.69068
782.46
3126.93
2.69059
782.51
3042.8
2.6905
782.56
3115.89
2.69042
782.61
3077.38
2.69033
782.66
2954.17
2.69024
782.71
3041.47
2.69016
782.76
2995.47
2.69007
782.81
2946.74
2.68999
782.86
2955.48
2.6899
782.91
2942.29
2.68981
782.96
3089.31
2.68973
783.01
3031.14
2.68964
783.06
3065.58
2.68955
783.11
3041.33
2.68947
783.16
2980.48
2.68938
783.21
2976.6
2.68929
783.26
2978.29
2.68921
783.31
2878.97
2.68912
783.36
2952.59
2.68904
783.41
3053.91
2.68895
783.46
3012.8
2.68886
783.51
2883.61
2.68878
783.56
2895.57
2.68869
783.61
2930.39
2.6886
783.66
2868.61
2.68852
783.71
2996.58
2.68843
783.76
3009.34
2.68835
783.81
2924.31
2.68826
783.86
3043.32
2.68817
783.91
3120.75
2.68809
783.96
3096.82
2.688
784.01
3000.82
2.68791
784.06
3032.17
2.68783
784.11
2949.81
2.68774
784.16
2950.1
2.68766
784.21
3008.83
2.68757
784.26
2908.96
2.68748
784.31
3019.26
2.6874
784.36
2950.69
2.68731
784.41
2942.44
2.68723
784.46
2956.81
2.68714
784.51
2860.81
2.68705
784.56
2938.4
2.68697
784.61
3018.89
2.68688
784.66
3099.79
2.6868
784.71
2867.95
2.68671
784.76
2903.12
2.68662
784.81
2880.85
2.68654
784.86
2923.69
2.68645
784.91
2906.75
2.68636
784.96
2925.01
2.68628
785.01
2938.65
2.68619
785.06
2910.88
2.68611
785.11
2867.33
2.68602
785.16
2920.02
2.68593
785.21
2972.48
2.68585
785.26
3013.76
2.68576
785.31
2839.56
2.68568
785.36
2940.42
2.68559
785.41
2936.88
2.6855
785.46
2841.67
2.68542
785.51
2892.58
2.68533
785.56
2959.06
2.68525
785.61
2931.21
2.68516
785.66
2913.27
2.68508
785.71
2927.07
2.68499
785.76
2879.25
2.6849
785.81
2939.09
2.68482
785.86
2895.84
2.68473
785.91
2983.45
2.68465
785.96
3022.02
2.68456
786.01
2999.13
2.68447
786.06
3009.35
2.68439
786.11
2934.12
2.6843
786.16
2892.08
2.68422
786.21
2886.24
2.68413
786.26
2985.36
2.68404
786.31
2912.28
2.68396
786.36
2889.37
2.68387
786.41
2942.78
2.68379
786.46
2915.88
2.6837
786.51
2958
2.68362
786.56
3029.28
2.68353
786.61
2952.85
2.68344
786.66
2946.24
2.68336
786.71
2886.53
2.68327
786.76
3017.85
2.68319
786.81
2936.63
2.6831
786.86
2876.9
2.68302
786.91
2884.39
2.68293
786.96
2955.08
2.68284
787.01
2891.89
2.68276
787.06
2958.88
2.68267
787.11
2913.19
2.68259
787.16
2879.65
2.6825
787.21
3010.42
2.68242
787.26
2843.68
2.68233
787.31
2922.04
2.68224
787.36
2924.48
2.68216
787.41
2833.76
2.68207
787.46
2866.48
2.68199
787.51
2836.76
2.6819
787.56
2930.34
2.68182
787.61
2881.52
2.68173
787.66
2823.53
2.68165
787.71
2725.18
2.68156
787.76
2879.13
2.68147
787.81
2854.7
2.68139
787.86
2860.83
2.6813
787.91
3002.67
2.68122
787.96
2948.91
2.68113
788.01
2868.86
2.68105
788.06
2828.14
2.68096
788.11
2876.37
2.68088
788.16
2965.84
2.68079
788.21
2972.42
2.6807
788.26
2947.95
2.68062
788.31
2823.05
2.68053
788.36
2835.78
2.68045
788.41
2983.42
2.68036
788.46
2886.08
2.68028
788.51
2848.75
2.68019
788.56
2915.24
2.68011
788.61
2921.82
2.68002
788.66
2781.38
2.67994
788.71
2938.45
2.67985
788.76
2854.48
2.67976
788.81
2868.32
2.67968
788.86
2905.01
2.67959
788.91
2904.27
2.67951
788.96
2924.27
2.67942
789.01
2813.72
2.67934
789.06
2857.34
2.67925
789.11
2920.51
2.67917
789.16
2905.8
2.67908
789.21
2875.74
2.679
789.26
2967.4
2.67891
789.31
2915.56
2.67883
789.36
2963.48
2.67874
789.41
2903.83
2.67866
789.46
2914.29
2.67857
789.51
2955.2
2.67848
789.56
2909.1
2.6784
789.61
3007.25
2.67831
789.66
2946.47
2.67823
789.71
2919.68
2.67814
789.76
2953.82
2.67806
789.81
2874.5
2.67797
789.86
2870.11
2.67789
789.91
2786.42
2.6778
789.96
2954.97
2.67772
790.01
2895.57
2.67763
790.06
2915.76
2.67755
790.11
2908.66
2.67746
790.16
2867.31
2.67738
790.21
2839.09
2.67729
790.26
2926.44
2.67721
790.31
2867.5
2.67712
790.36
2932.28
2.67704
790.41
3012.78
2.67695
790.46
2918.23
2.67687
790.51
3005.4
2.67678
790.56
2912.58
2.6767
790.61
2942.93
2.67661
790.66
2883.19
2.67653
790.71
2997.4
2.67644
790.76
2884.17
2.67636
790.81
2880.33
2.67627
790.86
2804.35
2.67618
790.91
2861.69
2.6761
790.96
2844.27
2.67601
791.01
2894.57
2.67593
791.06
2894.03
2.67584
791.11
2847.9
2.67576
791.16
2820.27
2.67567
791.21
2805.18
2.67559
791.26
2882.79
2.6755
791.31
2966.1
2.67542
791.36
2852.17
2.67533
791.41
2804.32
2.67525
791.46
2859.23
2.67516
791.51
2921.61
2.67508
791.56
3025.18
2.67499
791.61
2916.77
2.67491
791.66
2863.34
2.67483
791.71
2846.63
2.67474
791.76
2921.08
2.67466
791.81
2861.67
2.67457
791.86
2805.36
2.67449
791.91
2873.44
2.6744
791.96
2925.43
2.67432
792.01
2925.11
2.67423
792.06
2942.25
2.67415
792.11
2952.45
2.67406
792.16
2938.68
2.67398
792.21
2878.14
2.67389
792.26
2891.44
2.67381
792.31
2828.32
2.67372
792.36
2859.94
2.67364
792.41
2854.2
2.67355
792.46
2889.02
2.67347
792.51
2901.12
2.67338
792.56
2954.64
2.6733
792.61
2884.3
2.67321
end of experiment
